[2025-12-14 11:02:11] # ===============================
[2025-12-14 11:02:11] # START OF RANDOM SEARCH (Ridge_FE_FS) on FE+FS
[2025-12-14 11:02:11] # ===============================
[2025-12-14 11:02:11] N_SPLITS = 8, N_RANDOM_CONFIGS = 25
[2025-12-14 11:02:11] param_distributions = {'alpha': array([ 0.81109215,  0.83789732,  0.86558836,  0.89419454,  0.92374611,
        0.9542743 ,  0.98581139,  1.01839074,  1.05204677,  1.08681507,
        1.12273241,  1.15983675,  1.19816732,  1.23776465,  1.27867061,
        1.32092843,  1.36458281,  1.40967988,  1.45626733,  1.50439442,
        1.55411202,  1.6054727 ,  1.65853077,  1.7133423 ,  1.76996527,
        1.82845952,  1.88888691,  1.95131131,  2.01579874,  2.08241736,
        2.15123761,  2.22233224,  2.29577643,  2.37164783,  2.45002663,
        2.53099573,  2.6146407 ,  2.70105   ,  2.79031498,  2.88253   ,
        2.97779257,  3.07620341,  3.17786654,  3.28288947,  3.39138322,
        3.5034625 ,  3.6192458 ,  3.73885554,  3.86241817,  3.99006433,
        4.12192897,  4.25815151,  4.39887597,  4.54425112,  4.69443066,
        4.84957338,  5.00984329,  5.17540984,  5.34644807,  5.52313882,
        5.7056689 ,  5.89423126,  6.08902529,  6.29025692,  6.4981389 ,
        6.71289101,  6.93474031,  7.16392134,  7.4006764 ,  7.6452558 ,
        7.89791812,  8.15893049,  8.42856886,  8.70711831,  8.99487333,
        9.29213815,  9.59922705,  9.9164647 , 10.2441865 , 10.58273893,
       10.93247992, 11.29377925, 11.66701888, 12.05259344, 12.45091055,
       12.86239135, 13.28747087, 13.72659852, 14.18023858, 14.64887064,
       15.13299017, 15.63310901, 16.14975589, 16.68347706, 17.23483677,
       17.80441796, 18.3928228 , 19.0006734 , 19.6286124 , 20.27730368])}
[2025-12-14 11:02:11] 
[2025-12-14 11:02:11] ######## CONFIG 1/25 ########
[2025-12-14 11:02:11] Parameters: {'alpha': np.float64(12.052593435891739)}
[2025-12-14 11:02:11] [C1|F1] Training Ridge_FE_FS...
[2025-12-14 11:02:12] [C1|F1] TRAIN -> RMSE: 3734.26 | MAE: 2197.38 | R2: 0.8539 | Bias(pred-true): -243.37
[2025-12-14 11:02:12] [C1|F1] VAL   -> RMSE: 3562.67 | MAE: 2198.70 | R2: 0.8598 | Bias(pred-true): -197.82
[2025-12-14 11:02:12] [C1|F2] Training Ridge_FE_FS...
[2025-12-14 11:02:12] [C1|F2] TRAIN -> RMSE: 3731.21 | MAE: 2196.33 | R2: 0.8534 | Bias(pred-true): -238.18
[2025-12-14 11:02:12] [C1|F2] VAL   -> RMSE: 3631.83 | MAE: 2218.36 | R2: 0.8594 | Bias(pred-true): -188.86
[2025-12-14 11:02:12] [C1|F3] Training Ridge_FE_FS...
[2025-12-14 11:02:12] [C1|F3] TRAIN -> RMSE: 3720.75 | MAE: 2199.16 | R2: 0.8542 | Bias(pred-true): -243.52
[2025-12-14 11:02:12] [C1|F3] VAL   -> RMSE: 3631.66 | MAE: 2183.54 | R2: 0.8596 | Bias(pred-true): -263.86
[2025-12-14 11:02:12] [C1|F4] Training Ridge_FE_FS...
[2025-12-14 11:02:12] [C1|F4] TRAIN -> RMSE: 3672.76 | MAE: 2193.71 | R2: 0.8560 | Bias(pred-true): -242.26
[2025-12-14 11:02:12] [C1|F4] VAL   -> RMSE: 4002.68 | MAE: 2227.94 | R2: 0.8440 | Bias(pred-true): -269.92
[2025-12-14 11:02:12] [C1|F5] Training Ridge_FE_FS...
[2025-12-14 11:02:12] [C1|F5] TRAIN -> RMSE: 3717.50 | MAE: 2197.53 | R2: 0.8539 | Bias(pred-true): -244.29
[2025-12-14 11:02:12] [C1|F5] VAL   -> RMSE: 3681.98 | MAE: 2195.23 | R2: 0.8591 | Bias(pred-true): -253.91
[2025-12-14 11:02:12] [C1|F6] Training Ridge_FE_FS...
[2025-12-14 11:02:12] [C1|F6] TRAIN -> RMSE: 3699.16 | MAE: 2195.50 | R2: 0.8553 | Bias(pred-true): -243.37
[2025-12-14 11:02:12] [C1|F6] VAL   -> RMSE: 3786.19 | MAE: 2200.17 | R2: 0.8513 | Bias(pred-true): -285.73
[2025-12-14 11:02:12] [C1|F7] Training Ridge_FE_FS...
[2025-12-14 11:02:12] [C1|F7] TRAIN -> RMSE: 3695.39 | MAE: 2193.15 | R2: 0.8560 | Bias(pred-true): -242.49
[2025-12-14 11:02:12] [C1|F7] VAL   -> RMSE: 3820.11 | MAE: 2217.82 | R2: 0.8458 | Bias(pred-true): -265.15
[2025-12-14 11:02:12] [C1|F8] Training Ridge_FE_FS...
[2025-12-14 11:02:12] [C1|F8] TRAIN -> RMSE: 3727.85 | MAE: 2204.64 | R2: 0.8544 | Bias(pred-true): -244.21
[2025-12-14 11:02:12] [C1|F8] VAL   -> RMSE: 3574.15 | MAE: 2139.76 | R2: 0.8584 | Bias(pred-true): -214.88
[2025-12-14 11:02:12] 
[2025-12-14 11:02:12] Config 1 - Avg TRAIN RMSE: 3712.36 | MAE: 2197.17 | R2: 0.8546 | Bias: -242.71
[2025-12-14 11:02:12] Config 1 - Avg VAL   RMSE: 3711.41 | MAE: 2197.69 | R2: 0.8547 | Bias: -242.52
[2025-12-14 11:02:12] Config 1 - Combined score (0.5*RMSE + 0.5*MAE) [VAL]: 2954.55
[2025-12-14 11:02:12] [NEW BEST RMSE] Config 1 with avg RMSE (VAL) = 3711.41
[2025-12-14 11:02:12] [NEW BEST MAE] Config 1 with avg MAE (VAL) = 2197.69
[2025-12-14 11:02:12] [NEW BEST COMBINED] Config 1 with score = 2954.55
[2025-12-14 11:02:12] 
[2025-12-14 11:02:12] ######## CONFIG 2/25 ########
[2025-12-14 11:02:12] Parameters: {'alpha': np.float64(4.544251115783106)}
[2025-12-14 11:02:12] [C2|F1] Training Ridge_FE_FS...
[2025-12-14 11:02:12] [C2|F1] TRAIN -> RMSE: 3734.67 | MAE: 2197.61 | R2: 0.8538 | Bias(pred-true): -242.43
[2025-12-14 11:02:12] [C2|F1] VAL   -> RMSE: 3563.48 | MAE: 2199.09 | R2: 0.8597 | Bias(pred-true): -196.89
[2025-12-14 11:02:12] [C2|F2] Training Ridge_FE_FS...
[2025-12-14 11:02:12] [C2|F2] TRAIN -> RMSE: 3731.69 | MAE: 2196.59 | R2: 0.8533 | Bias(pred-true): -237.27
[2025-12-14 11:02:12] [C2|F2] VAL   -> RMSE: 3632.71 | MAE: 2218.65 | R2: 0.8593 | Bias(pred-true): -187.75
[2025-12-14 11:02:12] [C2|F3] Training Ridge_FE_FS...
[2025-12-14 11:02:12] [C2|F3] TRAIN -> RMSE: 3721.20 | MAE: 2199.39 | R2: 0.8541 | Bias(pred-true): -242.59
[2025-12-14 11:02:12] [C2|F3] VAL   -> RMSE: 3631.67 | MAE: 2183.64 | R2: 0.8596 | Bias(pred-true): -262.94
[2025-12-14 11:02:12] [C2|F4] Training Ridge_FE_FS...
[2025-12-14 11:02:12] [C2|F4] TRAIN -> RMSE: 3673.16 | MAE: 2193.93 | R2: 0.8560 | Bias(pred-true): -241.34
[2025-12-14 11:02:12] [C2|F4] VAL   -> RMSE: 4003.12 | MAE: 2228.25 | R2: 0.8440 | Bias(pred-true): -268.87
[2025-12-14 11:02:12] [C2|F5] Training Ridge_FE_FS...
[2025-12-14 11:02:12] [C2|F5] TRAIN -> RMSE: 3717.94 | MAE: 2197.75 | R2: 0.8539 | Bias(pred-true): -243.37
[2025-12-14 11:02:12] [C2|F5] VAL   -> RMSE: 3681.93 | MAE: 2195.37 | R2: 0.8591 | Bias(pred-true): -252.98
[2025-12-14 11:02:12] [C2|F6] Training Ridge_FE_FS...
[2025-12-14 11:02:12] [C2|F6] TRAIN -> RMSE: 3699.53 | MAE: 2195.70 | R2: 0.8553 | Bias(pred-true): -242.44
[2025-12-14 11:02:12] [C2|F6] VAL   -> RMSE: 3786.45 | MAE: 2200.37 | R2: 0.8513 | Bias(pred-true): -284.91
[2025-12-14 11:02:12] [C2|F7] Training Ridge_FE_FS...
[2025-12-14 11:02:12] [C2|F7] TRAIN -> RMSE: 3695.75 | MAE: 2193.37 | R2: 0.8560 | Bias(pred-true): -241.56
[2025-12-14 11:02:12] [C2|F7] VAL   -> RMSE: 3820.85 | MAE: 2218.16 | R2: 0.8457 | Bias(pred-true): -264.30
[2025-12-14 11:02:12] [C2|F8] Training Ridge_FE_FS...
[2025-12-14 11:02:12] [C2|F8] TRAIN -> RMSE: 3728.26 | MAE: 2204.87 | R2: 0.8544 | Bias(pred-true): -243.28
[2025-12-14 11:02:12] [C2|F8] VAL   -> RMSE: 3574.43 | MAE: 2139.85 | R2: 0.8584 | Bias(pred-true): -214.06
[2025-12-14 11:02:12] 
[2025-12-14 11:02:12] Config 2 - Avg TRAIN RMSE: 3712.77 | MAE: 2197.40 | R2: 0.8546 | Bias: -241.78
[2025-12-14 11:02:12] Config 2 - Avg VAL   RMSE: 3711.83 | MAE: 2197.92 | R2: 0.8546 | Bias: -241.59
[2025-12-14 11:02:12] Config 2 - Combined score (0.5*RMSE + 0.5*MAE) [VAL]: 2954.88
[2025-12-14 11:02:12] 
[2025-12-14 11:02:12] ######## CONFIG 3/25 ########
[2025-12-14 11:02:12] Parameters: {'alpha': np.float64(7.897918121377271)}
[2025-12-14 11:02:12] [C3|F1] Training Ridge_FE_FS...
[2025-12-14 11:02:12] [C3|F1] TRAIN -> RMSE: 3734.49 | MAE: 2197.51 | R2: 0.8538 | Bias(pred-true): -242.85
[2025-12-14 11:02:12] [C3|F1] VAL   -> RMSE: 3563.11 | MAE: 2198.92 | R2: 0.8597 | Bias(pred-true): -197.31
[2025-12-14 11:02:12] [C3|F2] Training Ridge_FE_FS...
[2025-12-14 11:02:12] [C3|F2] TRAIN -> RMSE: 3731.47 | MAE: 2196.47 | R2: 0.8533 | Bias(pred-true): -237.68
[2025-12-14 11:02:12] [C3|F2] VAL   -> RMSE: 3632.32 | MAE: 2218.52 | R2: 0.8594 | Bias(pred-true): -188.25
[2025-12-14 11:02:12] [C3|F3] Training Ridge_FE_FS...
[2025-12-14 11:02:12] [C3|F3] TRAIN -> RMSE: 3720.99 | MAE: 2199.29 | R2: 0.8542 | Bias(pred-true): -243.01
[2025-12-14 11:02:12] [C3|F3] VAL   -> RMSE: 3631.66 | MAE: 2183.59 | R2: 0.8596 | Bias(pred-true): -263.35
[2025-12-14 11:02:12] [C3|F4] Training Ridge_FE_FS...
[2025-12-14 11:02:12] [C3|F4] TRAIN -> RMSE: 3672.98 | MAE: 2193.83 | R2: 0.8560 | Bias(pred-true): -241.75
[2025-12-14 11:02:12] [C3|F4] VAL   -> RMSE: 4002.92 | MAE: 2228.11 | R2: 0.8440 | Bias(pred-true): -269.34
[2025-12-14 11:02:12] [C3|F5] Training Ridge_FE_FS...
[2025-12-14 11:02:12] [C3|F5] TRAIN -> RMSE: 3717.74 | MAE: 2197.65 | R2: 0.8539 | Bias(pred-true): -243.78
[2025-12-14 11:02:12] [C3|F5] VAL   -> RMSE: 3681.95 | MAE: 2195.31 | R2: 0.8591 | Bias(pred-true): -253.40
[2025-12-14 11:02:12] [C3|F6] Training Ridge_FE_FS...
[2025-12-14 11:02:12] [C3|F6] TRAIN -> RMSE: 3699.37 | MAE: 2195.61 | R2: 0.8553 | Bias(pred-true): -242.86
[2025-12-14 11:02:12] [C3|F6] VAL   -> RMSE: 3786.33 | MAE: 2200.28 | R2: 0.8513 | Bias(pred-true): -285.28
[2025-12-14 11:02:12] [C3|F7] Training Ridge_FE_FS...
[2025-12-14 11:02:12] [C3|F7] TRAIN -> RMSE: 3695.59 | MAE: 2193.27 | R2: 0.8560 | Bias(pred-true): -241.97
[2025-12-14 11:02:12] [C3|F7] VAL   -> RMSE: 3820.52 | MAE: 2218.00 | R2: 0.8457 | Bias(pred-true): -264.68
[2025-12-14 11:02:12] [C3|F8] Training Ridge_FE_FS...
[2025-12-14 11:02:12] [C3|F8] TRAIN -> RMSE: 3728.07 | MAE: 2204.77 | R2: 0.8544 | Bias(pred-true): -243.70
[2025-12-14 11:02:12] [C3|F8] VAL   -> RMSE: 3574.30 | MAE: 2139.81 | R2: 0.8584 | Bias(pred-true): -214.43
[2025-12-14 11:02:12] 
[2025-12-14 11:02:12] Config 3 - Avg TRAIN RMSE: 3712.59 | MAE: 2197.30 | R2: 0.8546 | Bias: -242.20
[2025-12-14 11:02:12] Config 3 - Avg VAL   RMSE: 3711.64 | MAE: 2197.82 | R2: 0.8546 | Bias: -242.00
[2025-12-14 11:02:12] Config 3 - Combined score (0.5*RMSE + 0.5*MAE) [VAL]: 2954.73
[2025-12-14 11:02:12] 
[2025-12-14 11:02:12] ######## CONFIG 4/25 ########
[2025-12-14 11:02:12] Parameters: {'alpha': np.float64(3.5034625003231197)}
[2025-12-14 11:02:12] [C4|F1] Training Ridge_FE_FS...
[2025-12-14 11:02:12] [C4|F1] TRAIN -> RMSE: 3734.73 | MAE: 2197.65 | R2: 0.8538 | Bias(pred-true): -242.30
[2025-12-14 11:02:12] [C4|F1] VAL   -> RMSE: 3563.59 | MAE: 2199.15 | R2: 0.8597 | Bias(pred-true): -196.76
[2025-12-14 11:02:12] [C4|F2] Training Ridge_FE_FS...
[2025-12-14 11:02:12] [C4|F2] TRAIN -> RMSE: 3731.76 | MAE: 2196.63 | R2: 0.8533 | Bias(pred-true): -237.14
[2025-12-14 11:02:12] [C4|F2] VAL   -> RMSE: 3632.83 | MAE: 2218.69 | R2: 0.8593 | Bias(pred-true): -187.60
[2025-12-14 11:02:12] [C4|F3] Training Ridge_FE_FS...
[2025-12-14 11:02:12] [C4|F3] TRAIN -> RMSE: 3721.26 | MAE: 2199.43 | R2: 0.8541 | Bias(pred-true): -242.46
[2025-12-14 11:02:12] [C4|F3] VAL   -> RMSE: 3631.67 | MAE: 2183.66 | R2: 0.8596 | Bias(pred-true): -262.81
[2025-12-14 11:02:12] [C4|F4] Training Ridge_FE_FS...
[2025-12-14 11:02:12] [C4|F4] TRAIN -> RMSE: 3673.22 | MAE: 2193.96 | R2: 0.8560 | Bias(pred-true): -241.21
[2025-12-14 11:02:12] [C4|F4] VAL   -> RMSE: 4003.18 | MAE: 2228.29 | R2: 0.8440 | Bias(pred-true): -268.72
[2025-12-14 11:02:12] [C4|F5] Training Ridge_FE_FS...
[2025-12-14 11:02:12] [C4|F5] TRAIN -> RMSE: 3718.00 | MAE: 2197.78 | R2: 0.8539 | Bias(pred-true): -243.24
[2025-12-14 11:02:12] [C4|F5] VAL   -> RMSE: 3681.92 | MAE: 2195.40 | R2: 0.8591 | Bias(pred-true): -252.85
[2025-12-14 11:02:12] [C4|F6] Training Ridge_FE_FS...
[2025-12-14 11:02:12] [C4|F6] TRAIN -> RMSE: 3699.59 | MAE: 2195.73 | R2: 0.8553 | Bias(pred-true): -242.32
[2025-12-14 11:02:12] [C4|F6] VAL   -> RMSE: 3786.49 | MAE: 2200.40 | R2: 0.8513 | Bias(pred-true): -284.79
[2025-12-14 11:02:12] [C4|F7] Training Ridge_FE_FS...
[2025-12-14 11:02:12] [C4|F7] TRAIN -> RMSE: 3695.80 | MAE: 2193.40 | R2: 0.8560 | Bias(pred-true): -241.43
[2025-12-14 11:02:12] [C4|F7] VAL   -> RMSE: 3820.95 | MAE: 2218.21 | R2: 0.8457 | Bias(pred-true): -264.18
[2025-12-14 11:02:12] [C4|F8] Training Ridge_FE_FS...
[2025-12-14 11:02:12] [C4|F8] TRAIN -> RMSE: 3728.32 | MAE: 2204.90 | R2: 0.8544 | Bias(pred-true): -243.15
[2025-12-14 11:02:12] [C4|F8] VAL   -> RMSE: 3574.47 | MAE: 2139.86 | R2: 0.8584 | Bias(pred-true): -213.94
[2025-12-14 11:02:12] 
[2025-12-14 11:02:12] Config 4 - Avg TRAIN RMSE: 3712.83 | MAE: 2197.43 | R2: 0.8546 | Bias: -241.66
[2025-12-14 11:02:12] Config 4 - Avg VAL   RMSE: 3711.89 | MAE: 2197.96 | R2: 0.8546 | Bias: -241.46
[2025-12-14 11:02:12] Config 4 - Combined score (0.5*RMSE + 0.5*MAE) [VAL]: 2954.92
[2025-12-14 11:02:12] 
[2025-12-14 11:02:12] ######## CONFIG 5/25 ########
[2025-12-14 11:02:12] Parameters: {'alpha': np.float64(3.391383221325652)}
[2025-12-14 11:02:12] [C5|F1] Training Ridge_FE_FS...
[2025-12-14 11:02:12] [C5|F1] TRAIN -> RMSE: 3734.74 | MAE: 2197.65 | R2: 0.8538 | Bias(pred-true): -242.28
[2025-12-14 11:02:12] [C5|F1] VAL   -> RMSE: 3563.60 | MAE: 2199.15 | R2: 0.8597 | Bias(pred-true): -196.75
[2025-12-14 11:02:12] [C5|F2] Training Ridge_FE_FS...
[2025-12-14 11:02:12] [C5|F2] TRAIN -> RMSE: 3731.76 | MAE: 2196.63 | R2: 0.8533 | Bias(pred-true): -237.13
[2025-12-14 11:02:12] [C5|F2] VAL   -> RMSE: 3632.85 | MAE: 2218.69 | R2: 0.8593 | Bias(pred-true): -187.58
[2025-12-14 11:02:12] [C5|F3] Training Ridge_FE_FS...
[2025-12-14 11:02:12] [C5|F3] TRAIN -> RMSE: 3721.27 | MAE: 2199.43 | R2: 0.8541 | Bias(pred-true): -242.44
[2025-12-14 11:02:12] [C5|F3] VAL   -> RMSE: 3631.67 | MAE: 2183.66 | R2: 0.8596 | Bias(pred-true): -262.79
[2025-12-14 11:02:12] [C5|F4] Training Ridge_FE_FS...
[2025-12-14 11:02:12] [C5|F4] TRAIN -> RMSE: 3673.23 | MAE: 2193.97 | R2: 0.8560 | Bias(pred-true): -241.20
[2025-12-14 11:02:12] [C5|F4] VAL   -> RMSE: 4003.19 | MAE: 2228.30 | R2: 0.8440 | Bias(pred-true): -268.71
[2025-12-14 11:02:12] [C5|F5] Training Ridge_FE_FS...
[2025-12-14 11:02:12] [C5|F5] TRAIN -> RMSE: 3718.01 | MAE: 2197.78 | R2: 0.8539 | Bias(pred-true): -243.23
[2025-12-14 11:02:12] [C5|F5] VAL   -> RMSE: 3681.92 | MAE: 2195.40 | R2: 0.8591 | Bias(pred-true): -252.84
[2025-12-14 11:02:12] [C5|F6] Training Ridge_FE_FS...
[2025-12-14 11:02:12] [C5|F6] TRAIN -> RMSE: 3699.59 | MAE: 2195.74 | R2: 0.8553 | Bias(pred-true): -242.30
[2025-12-14 11:02:12] [C5|F6] VAL   -> RMSE: 3786.49 | MAE: 2200.40 | R2: 0.8513 | Bias(pred-true): -284.78
[2025-12-14 11:02:12] [C5|F7] Training Ridge_FE_FS...
[2025-12-14 11:02:12] [C5|F7] TRAIN -> RMSE: 3695.80 | MAE: 2193.40 | R2: 0.8560 | Bias(pred-true): -241.41
[2025-12-14 11:02:12] [C5|F7] VAL   -> RMSE: 3820.96 | MAE: 2218.21 | R2: 0.8457 | Bias(pred-true): -264.17
[2025-12-14 11:02:12] [C5|F8] Training Ridge_FE_FS...
[2025-12-14 11:02:12] [C5|F8] TRAIN -> RMSE: 3728.32 | MAE: 2204.91 | R2: 0.8544 | Bias(pred-true): -243.14
[2025-12-14 11:02:12] [C5|F8] VAL   -> RMSE: 3574.47 | MAE: 2139.87 | R2: 0.8584 | Bias(pred-true): -213.93
[2025-12-14 11:02:12] 
[2025-12-14 11:02:12] Config 5 - Avg TRAIN RMSE: 3712.84 | MAE: 2197.44 | R2: 0.8546 | Bias: -241.64
[2025-12-14 11:02:12] Config 5 - Avg VAL   RMSE: 3711.90 | MAE: 2197.96 | R2: 0.8546 | Bias: -241.44
[2025-12-14 11:02:12] Config 5 - Combined score (0.5*RMSE + 0.5*MAE) [VAL]: 2954.93
[2025-12-14 11:02:12] 
[2025-12-14 11:02:12] ######## CONFIG 6/25 ########
[2025-12-14 11:02:12] Parameters: {'alpha': np.float64(2.882530003507281)}
[2025-12-14 11:02:12] [C6|F1] Training Ridge_FE_FS...
[2025-12-14 11:02:12] [C6|F1] TRAIN -> RMSE: 3734.77 | MAE: 2197.67 | R2: 0.8538 | Bias(pred-true): -242.22
[2025-12-14 11:02:12] [C6|F1] VAL   -> RMSE: 3563.66 | MAE: 2199.18 | R2: 0.8597 | Bias(pred-true): -196.69
[2025-12-14 11:02:12] [C6|F2] Training Ridge_FE_FS...
[2025-12-14 11:02:12] [C6|F2] TRAIN -> RMSE: 3731.80 | MAE: 2196.65 | R2: 0.8533 | Bias(pred-true): -237.06
[2025-12-14 11:02:12] [C6|F2] VAL   -> RMSE: 3632.91 | MAE: 2218.71 | R2: 0.8593 | Bias(pred-true): -187.50
[2025-12-14 11:02:12] [C6|F3] Training Ridge_FE_FS...
[2025-12-14 11:02:12] [C6|F3] TRAIN -> RMSE: 3721.30 | MAE: 2199.45 | R2: 0.8541 | Bias(pred-true): -242.38
[2025-12-14 11:02:12] [C6|F3] VAL   -> RMSE: 3631.68 | MAE: 2183.67 | R2: 0.8596 | Bias(pred-true): -262.73
[2025-12-14 11:02:12] [C6|F4] Training Ridge_FE_FS...
[2025-12-14 11:02:12] [C6|F4] TRAIN -> RMSE: 3673.26 | MAE: 2193.98 | R2: 0.8560 | Bias(pred-true): -241.14
[2025-12-14 11:02:12] [C6|F4] VAL   -> RMSE: 4003.22 | MAE: 2228.32 | R2: 0.8440 | Bias(pred-true): -268.63
[2025-12-14 11:02:12] [C6|F5] Training Ridge_FE_FS...
[2025-12-14 11:02:13] [C6|F5] TRAIN -> RMSE: 3718.04 | MAE: 2197.80 | R2: 0.8539 | Bias(pred-true): -243.16
[2025-12-14 11:02:13] [C6|F5] VAL   -> RMSE: 3681.92 | MAE: 2195.41 | R2: 0.8591 | Bias(pred-true): -252.78
[2025-12-14 11:02:13] [C6|F6] Training Ridge_FE_FS...
[2025-12-14 11:02:13] [C6|F6] TRAIN -> RMSE: 3699.62 | MAE: 2195.75 | R2: 0.8553 | Bias(pred-true): -242.24
[2025-12-14 11:02:13] [C6|F6] VAL   -> RMSE: 3786.51 | MAE: 2200.41 | R2: 0.8513 | Bias(pred-true): -284.73
[2025-12-14 11:02:13] [C6|F7] Training Ridge_FE_FS...
[2025-12-14 11:02:13] [C6|F7] TRAIN -> RMSE: 3695.83 | MAE: 2193.41 | R2: 0.8560 | Bias(pred-true): -241.35
[2025-12-14 11:02:13] [C6|F7] VAL   -> RMSE: 3821.02 | MAE: 2218.24 | R2: 0.8457 | Bias(pred-true): -264.11
[2025-12-14 11:02:13] [C6|F8] Training Ridge_FE_FS...
[2025-12-14 11:02:13] [C6|F8] TRAIN -> RMSE: 3728.35 | MAE: 2204.92 | R2: 0.8544 | Bias(pred-true): -243.07
[2025-12-14 11:02:13] [C6|F8] VAL   -> RMSE: 3574.49 | MAE: 2139.87 | R2: 0.8584 | Bias(pred-true): -213.87
[2025-12-14 11:02:13] 
[2025-12-14 11:02:13] Config 6 - Avg TRAIN RMSE: 3712.87 | MAE: 2197.45 | R2: 0.8546 | Bias: -241.58
[2025-12-14 11:02:13] Config 6 - Avg VAL   RMSE: 3711.92 | MAE: 2197.98 | R2: 0.8546 | Bias: -241.38
[2025-12-14 11:02:13] Config 6 - Combined score (0.5*RMSE + 0.5*MAE) [VAL]: 2954.95
[2025-12-14 11:02:13] 
[2025-12-14 11:02:13] ######## CONFIG 7/25 ########
[2025-12-14 11:02:13] Parameters: {'alpha': np.float64(1.6585307651216823)}
[2025-12-14 11:02:13] [C7|F1] Training Ridge_FE_FS...
[2025-12-14 11:02:13] [C7|F1] TRAIN -> RMSE: 3734.84 | MAE: 2197.70 | R2: 0.8538 | Bias(pred-true): -242.06
[2025-12-14 11:02:13] [C7|F1] VAL   -> RMSE: 3563.79 | MAE: 2199.25 | R2: 0.8597 | Bias(pred-true): -196.53
[2025-12-14 11:02:13] [C7|F2] Training Ridge_FE_FS...
[2025-12-14 11:02:13] [C7|F2] TRAIN -> RMSE: 3731.88 | MAE: 2196.70 | R2: 0.8533 | Bias(pred-true): -236.91
[2025-12-14 11:02:13] [C7|F2] VAL   -> RMSE: 3633.05 | MAE: 2218.76 | R2: 0.8593 | Bias(pred-true): -187.32
[2025-12-14 11:02:13] [C7|F3] Training Ridge_FE_FS...
[2025-12-14 11:02:13] [C7|F3] TRAIN -> RMSE: 3721.38 | MAE: 2199.49 | R2: 0.8541 | Bias(pred-true): -242.23
[2025-12-14 11:02:13] [C7|F3] VAL   -> RMSE: 3631.68 | MAE: 2183.69 | R2: 0.8596 | Bias(pred-true): -262.58
[2025-12-14 11:02:13] [C7|F4] Training Ridge_FE_FS...
[2025-12-14 11:02:13] [C7|F4] TRAIN -> RMSE: 3673.32 | MAE: 2194.02 | R2: 0.8560 | Bias(pred-true): -240.98
[2025-12-14 11:02:13] [C7|F4] VAL   -> RMSE: 4003.29 | MAE: 2228.37 | R2: 0.8440 | Bias(pred-true): -268.46
[2025-12-14 11:02:13] [C7|F5] Training Ridge_FE_FS...
[2025-12-14 11:02:13] [C7|F5] TRAIN -> RMSE: 3718.11 | MAE: 2197.84 | R2: 0.8539 | Bias(pred-true): -243.01
[2025-12-14 11:02:13] [C7|F5] VAL   -> RMSE: 3681.91 | MAE: 2195.43 | R2: 0.8591 | Bias(pred-true): -252.63
[2025-12-14 11:02:13] [C7|F6] Training Ridge_FE_FS...
[2025-12-14 11:02:13] [C7|F6] TRAIN -> RMSE: 3699.68 | MAE: 2195.79 | R2: 0.8553 | Bias(pred-true): -242.09
[2025-12-14 11:02:13] [C7|F6] VAL   -> RMSE: 3786.55 | MAE: 2200.45 | R2: 0.8512 | Bias(pred-true): -284.59
[2025-12-14 11:02:13] [C7|F7] Training Ridge_FE_FS...
[2025-12-14 11:02:13] [C7|F7] TRAIN -> RMSE: 3695.89 | MAE: 2193.45 | R2: 0.8560 | Bias(pred-true): -241.20
[2025-12-14 11:02:13] [C7|F7] VAL   -> RMSE: 3821.14 | MAE: 2218.29 | R2: 0.8457 | Bias(pred-true): -263.97
[2025-12-14 11:02:13] [C7|F8] Training Ridge_FE_FS...
[2025-12-14 11:02:13] [C7|F8] TRAIN -> RMSE: 3728.42 | MAE: 2204.96 | R2: 0.8544 | Bias(pred-true): -242.92
[2025-12-14 11:02:13] [C7|F8] VAL   -> RMSE: 3574.54 | MAE: 2139.89 | R2: 0.8584 | Bias(pred-true): -213.74
